Date,Open,High,Low,Close,Volume,Adj Close
2016-11-25,76.040001,76.660004,75.75,76.07,122500,76.07
2016-11-23,75.169998,76.25,75.169998,76.050003,193800,76.050003
2016-11-22,74.599998,75.650002,73.959999,75.489998,452400,75.489998
2016-11-21,73.699997,74.260002,73.339996,74.239998,182500,74.239998
2016-11-18,73.419998,73.760002,72.870003,73.650002,229800,73.650002
2016-11-17,73.580002,74.260002,72.800003,73.580002,207500,73.580002
2016-11-16,73.629997,73.720001,72.910004,73.57,205000,73.57
2016-11-15,73.480003,73.800003,72.989998,73.379997,190100,73.379997
2016-11-14,72.290001,73.540001,72.290001,73.510002,308000,73.510002
2016-11-11,71.360001,72.129997,70.75,71.849998,315900,71.849998
2016-11-10,75.599998,75.599998,71.269997,71.43,636100,71.43
2016-11-09,74.910004,76.07,74.529999,75.110001,313100,75.110001
2016-11-08,74.279999,76.07,74.050003,75.739998,506700,75.739998
2016-11-07,72.57,74.349998,72.290001,74.330002,458400,74.330002
2016-11-04,71.110001,71.900002,70.980003,71.410004,235500,71.410004
2016-11-03,70.849998,71.459999,70.639999,70.870003,218400,70.870003
2016-11-02,70.580002,71.540001,70.43,70.919998,267400,70.919998
2016-11-01,71.809998,71.849998,70.32,70.620003,345000,70.620003
2016-10-31,72.93,73.889999,70.879997,71.440002,644800,71.440002
2016-10-28,75.110001,75.989998,72.580002,73.019997,464700,72.699996
2016-10-27,76.389999,76.389999,75.610001,76.279999,174600,75.945711
2016-10-26,76.82,77.190002,76.199997,76.269997,178100,75.935753
2016-10-25,77.00,77.139999,76.190002,77.00,187000,76.662557
2016-10-24,78.099998,78.099998,76.550003,77.00,150800,76.662557
2016-10-21,76.230003,77.410004,75.870003,77.160004,184300,76.82186
2016-10-20,76.120003,76.800003,75.389999,75.970001,219300,75.637072
2016-10-19,76.279999,76.779999,76.040001,76.480003,97900,76.14484
2016-10-18,76.779999,77.00,75.980003,76.389999,112900,76.05523
2016-10-17,76.019997,76.470001,76.010002,76.199997,80900,75.86606
2016-10-14,75.620003,76.32,75.57,76.029999,176800,75.696807
2016-10-13,74.779999,76.199997,74.580002,75.589996,211200,75.258733
2016-10-12,75.559998,75.809998,75.110001,75.660004,140900,75.328433
2016-10-11,75.620003,75.720001,74.550003,75.07,152700,74.741015
2016-10-10,76.040001,76.519997,75.68,75.949997,116400,75.617156
2016-10-07,76.660004,76.669998,75.190002,75.639999,279500,75.308517
2016-10-06,76.099998,76.669998,75.760002,76.639999,153500,76.304134
2016-10-05,76.459999,76.589996,75.93,76.110001,189300,75.776458
2016-10-04,77.239998,77.68,76.00,76.099998,242700,75.7665
2016-10-03,77.07,77.440002,76.599998,77.360001,301500,77.02098
2016-09-30,77.360001,77.919998,76.970001,77.410004,407300,77.070764
2016-09-29,78.279999,78.57,77.080002,77.209999,175600,76.871636
2016-09-28,78.360001,78.650002,77.610001,78.610001,211900,78.265502
2016-09-27,77.360001,78.139999,77.360001,77.739998,631400,77.399312
2016-09-26,78.690002,78.970001,78.029999,78.059998,289000,77.71791
2016-09-23,79.169998,79.489998,78.610001,78.790001,157100,78.444714
2016-09-22,79.059998,79.510002,78.360001,79.459999,281200,79.111776
2016-09-21,78.809998,78.809998,77.839996,78.419998,413200,78.076333
2016-09-20,79.099998,79.410004,78.699997,78.720001,281000,78.375021
2016-09-19,77.900002,78.800003,77.889999,78.610001,233200,78.265502
2016-09-16,77.360001,78.010002,77.360001,77.599998,310300,77.259926
2016-09-15,77.300003,77.989998,77.260002,77.900002,162600,77.558615
2016-09-14,77.489998,77.760002,77.059998,77.370003,150000,77.030939
2016-09-13,78.080002,78.370003,77.139999,77.540001,246800,77.200192
2016-09-12,77.00,78.559998,77.00,78.510002,182000,78.165942
2016-09-09,78.900002,78.900002,77.43,77.459999,327000,77.120541
2016-09-08,80.519997,80.550003,79.169998,79.209999,281300,78.862871
2016-09-07,79.18,80.370003,79.18,80.290001,316100,79.93814
2016-09-06,79.440002,79.809998,78.919998,79.459999,237300,79.111776
2016-09-02,78.470001,79.18,78.099998,79.160004,253000,78.813095
2016-09-01,78.120003,78.300003,77.489998,77.970001,209800,77.628308
2016-08-31,78.540001,78.790001,77.959999,77.980003,279700,77.638266
2016-08-30,78.779999,79.120003,78.589996,78.690002,198900,78.345154
2016-08-29,78.50,79.059998,78.50,78.779999,163400,78.434756
2016-08-26,78.050003,79.07,78.050003,78.470001,376200,78.126116
2016-08-25,77.43,78.540001,77.43,78.07,219500,77.727868
2016-08-24,77.220001,77.739998,77.220001,77.580002,185900,77.240017
2016-08-23,77.410004,77.93,77.269997,77.339996,312400,77.001064
2016-08-22,76.769997,77.220001,76.400002,77.099998,144600,76.762118
2016-08-19,76.459999,76.989998,76.239998,76.779999,209400,76.44352
2016-08-18,75.800003,76.830002,75.620003,76.830002,220900,76.493304
2016-08-17,75.220001,75.82,75.010002,75.790001,179400,75.457861
2016-08-16,75.589996,75.639999,75.080002,75.160004,186000,74.830625
2016-08-15,75.870003,76.080002,75.480003,75.50,103000,75.169131
2016-08-12,75.989998,76.099998,75.349998,75.580002,99200,75.248782
2016-08-11,76.580002,76.860001,75.870003,76.099998,193300,75.7665
2016-08-10,76.07,76.330002,75.839996,76.220001,133000,75.885977
2016-08-09,76.260002,76.599998,75.720001,75.980003,153000,75.647031
2016-08-08,76.709999,77.589996,75.989998,76.169998,185000,75.836193
2016-08-05,77.300003,77.32,76.449997,76.589996,217700,76.25435
2016-08-04,76.739998,77.489998,76.540001,76.779999,171800,76.44352
2016-08-03,76.709999,76.970001,76.25,76.620003,213500,76.284225
2016-08-02,77.230003,77.230003,75.940002,76.610001,406600,76.274267
2016-08-01,78.139999,78.139999,77.00,77.339996,302600,77.001064
2016-07-29,79.919998,81.50,77.110001,78.18,730500,77.837386
2016-07-28,79.709999,79.989998,78.970001,79.379997,239100,79.032125
2016-07-27,80.739998,80.739998,79.279999,79.720001,321300,79.370639
2016-07-26,79.879997,80.720001,79.879997,80.300003,185200,79.948099
2016-07-25,80.040001,80.400002,79.800003,79.949997,235000,79.599626
2016-07-22,79.919998,80.790001,79.910004,80.459999,140900,79.808707
2016-07-21,80.059998,80.57,79.730003,79.940002,132500,79.292919
2016-07-20,79.559998,80.720001,79.559998,80.300003,191200,79.650006
2016-07-19,79.860001,80.089996,79.220001,79.620003,87100,78.97551
2016-07-18,79.919998,80.540001,79.580002,79.910004,93400,79.263163
2016-07-15,80.110001,80.629997,79.919998,79.919998,164500,79.273077
2016-07-14,80.800003,81.00,79.860001,80.190002,134100,79.540896
2016-07-13,80.769997,80.919998,80.080002,80.230003,188000,79.580573
2016-07-12,80.75,81.169998,80.360001,80.410004,143800,79.759116
2016-07-11,80.080002,80.470001,79.879997,80.199997,144500,79.550809
2016-07-08,79.269997,79.849998,79.099998,79.790001,132300,79.144132
2016-07-07,78.889999,79.330002,78.279999,78.489998,155400,77.854652
2016-07-06,78.660004,78.82,77.970001,78.739998,192300,78.102628
2016-07-05,78.849998,79.099998,77.800003,78.720001,207000,78.082794
2016-07-01,78.989998,79.730003,78.50,79.169998,169300,78.529148
2016-06-30,76.959999,79.150002,76.760002,79.129997,395900,78.489471
2016-06-29,76.550003,76.949997,75.949997,76.720001,198000,76.098983
2016-06-28,74.900002,75.690002,74.529999,75.690002,216300,75.077321
2016-06-27,75.93,75.970001,74.269997,74.599998,327800,73.996141
2016-06-24,77.199997,78.099998,76.540001,76.75,461600,76.128739
2016-06-23,79.080002,80.139999,79.080002,80.139999,368500,79.491297
2016-06-22,77.910004,78.309998,77.620003,78.309998,162800,77.676109
2016-06-21,77.620003,78.220001,77.470001,77.68,213400,77.051211
2016-06-20,77.18,77.980003,77.18,77.620003,140800,76.991699
2016-06-17,76.220001,76.599998,75.790001,76.349998,351300,75.731975
2016-06-16,76.059998,76.940002,75.660004,76.50,285400,75.880762
2016-06-15,76.50,76.959999,76.059998,76.32,213300,75.702219
2016-06-14,76.830002,76.959999,76.099998,76.440002,246100,75.821251
2016-06-13,77.75,78.080002,76.620003,76.779999,261800,76.158495
2016-06-10,77.400002,78.199997,77.400002,78.199997,274700,77.566999
2016-06-09,77.400002,77.870003,77.18,77.790001,123400,77.160321
2016-06-08,77.589996,78.550003,77.120003,77.720001,128100,77.090888
2016-06-07,77.029999,77.910004,77.029999,77.489998,170000,76.862747
2016-06-06,77.309998,78.029999,76.790001,77.089996,184800,76.465983
2016-06-03,77.57,77.790001,76.940002,77.199997,145100,76.575093
2016-06-02,77.150002,77.349998,76.790001,77.349998,222600,76.72388
2016-06-01,76.860001,77.209999,76.07,77.209999,194600,76.585014
2016-05-31,77.220001,77.540001,76.830002,77.260002,267700,76.634613
2016-05-27,76.519997,77.190002,76.18,77.139999,246300,76.515581
2016-05-26,76.519997,76.760002,75.959999,76.43,140300,75.811329
2016-05-25,76.349998,76.860001,76.080002,76.349998,173400,75.731975
2016-05-24,75.239998,76.559998,75.150002,76.379997,257900,75.761731
2016-05-23,75.489998,75.629997,74.730003,74.790001,220500,74.184605
2016-05-20,75.309998,75.779999,74.970001,75.330002,301700,74.720235
2016-05-19,74.760002,75.480003,74.160004,74.849998,253100,74.244117
2016-05-18,75.120003,76.089996,74.830002,75.25,337400,74.640881
2016-05-17,77.260002,77.419998,75.239998,75.400002,446800,74.789668
2016-05-16,77.080002,77.790001,76.629997,77.400002,169500,76.773479
2016-05-13,77.339996,77.339996,76.510002,76.970001,202900,76.346959
2016-05-12,77.32,77.980003,77.080002,77.629997,219900,77.001613
2016-05-11,77.07,77.669998,76.68,76.830002,251800,76.208093
2016-05-10,76.730003,77.300003,76.309998,77.080002,196600,76.456069
2016-05-09,76.169998,76.82,75.660004,76.550003,365700,75.930361
2016-05-06,76.00,76.550003,75.720001,76.279999,222400,75.662542
2016-05-05,75.540001,76.480003,75.120003,76.059998,307100,75.444322
2016-05-04,75.25,75.900002,75.010002,75.559998,574200,74.948369
2016-05-03,76.389999,76.50,75.599998,75.75,836200,75.136833
2016-05-02,75.779999,77.330002,75.650002,76.849998,478800,76.227928
2016-04-29,77.220001,77.959999,75.709999,76.00,777800,75.38481
2016-04-28,79.75,80.32,79.00,79.290001,575500,78.648179
2016-04-27,79.889999,80.360001,79.540001,79.959999,303200,79.312754
2016-04-26,79.32,80.00,78.739998,79.93,234400,79.282998
2016-04-25,78.940002,79.419998,78.75,79.019997,266800,78.380361
2016-04-22,78.620003,79.790001,78.620003,79.68,238600,78.737455
2016-04-21,79.610001,80.029999,78.43,78.580002,218600,77.650468
2016-04-20,79.720001,79.93,79.160004,79.769997,188500,78.826386
2016-04-19,79.900002,80.32,79.260002,79.449997,304700,78.510172
2016-04-18,79.00,79.660004,78.93,79.629997,221100,78.688043
2016-04-15,78.419998,79.300003,78.160004,79.25,246900,78.312541
2016-04-14,78.360001,78.57,77.980003,78.449997,211900,77.522001
2016-04-13,78.029999,78.230003,76.870003,78.190002,172400,77.265082
2016-04-12,77.470001,77.699997,76.970001,77.589996,201000,76.672174
2016-04-11,77.970001,78.169998,77.160004,77.360001,171700,76.444899
2016-04-08,77.849998,77.849998,77.040001,77.360001,178600,76.444899
2016-04-07,77.639999,77.639999,76.860001,77.349998,219100,76.435015
2016-04-06,77.739998,78.190002,76.660004,77.980003,250300,77.057567
2016-04-05,78.32,78.779999,77.50,77.739998,218700,76.820401
2016-04-04,79.230003,79.669998,78.709999,78.910004,177000,77.976566
2016-04-01,78.029999,79.160004,77.82,79.089996,193900,78.15443
2016-03-31,78.830002,79.019997,78.199997,78.410004,373200,77.482481
2016-03-30,78.779999,79.040001,78.059998,78.730003,294200,77.798695
2016-03-29,77.940002,78.709999,77.379997,78.510002,624100,77.581297
2016-03-28,77.68,78.370003,77.449997,78.309998,320300,77.383658
2016-03-24,77.93,77.989998,76.860001,77.389999,207600,76.474542
2016-03-23,77.959999,78.889999,76.989998,78.139999,253200,77.215671
2016-03-22,77.00,78.419998,76.639999,78.07,241500,77.146499
2016-03-21,76.989998,77.989998,76.82,77.379997,212000,76.464659
2016-03-18,76.949997,77.580002,76.169998,76.889999,611700,75.980457
2016-03-17,76.839996,77.760002,76.510002,77.260002,304300,76.346083
2016-03-16,75.779999,76.830002,75.529999,76.550003,188200,75.644483
2016-03-15,74.779999,76.50,74.040001,76.160004,365100,75.259096
2016-03-14,75.779999,76.199997,74.879997,75.239998,286000,74.349974
2016-03-11,75.510002,76.199997,75.510002,75.779999,239200,74.883587
2016-03-10,76.279999,76.809998,75.129997,75.370003,266300,74.478441
2016-03-09,75.949997,76.529999,75.099998,75.849998,313200,74.952758
2016-03-08,75.720001,76.129997,75.120003,75.790001,236800,74.893471
2016-03-07,75.870003,76.419998,75.089996,75.720001,216100,74.824299
2016-03-04,75.199997,76.099998,75.139999,76.00,299600,75.100986
2016-03-03,74.349998,75.25,73.809998,75.199997,354300,74.310446
2016-03-02,74.389999,74.830002,73.82,74.410004,154800,73.529797
2016-03-01,74.040001,75.080002,73.75,74.50,233000,73.618729
2016-02-29,73.50,74.379997,72.980003,73.709999,211600,72.838073
2016-02-26,74.779999,74.949997,73.309998,73.330002,159400,72.462571
2016-02-25,74.00,74.389999,73.480003,74.339996,208700,73.460618
2016-02-24,72.419998,74.120003,72.220001,73.910004,220200,73.035712
2016-02-23,72.849998,73.019997,72.050003,72.870003,264900,72.008013
2016-02-22,73.470001,73.879997,72.440002,72.800003,387400,71.938842
2016-02-19,73.300003,73.760002,71.559998,72.879997,700700,72.01789
2016-02-18,73.50,73.75,72.980003,73.300003,260400,72.432927
2016-02-17,74.25,74.669998,73.169998,73.370003,374100,72.502099
2016-02-16,76.050003,76.190002,73.470001,73.949997,386700,73.075232
2016-02-12,74.82,75.650002,73.699997,75.300003,306400,74.409269
2016-02-11,73.190002,75.019997,73.190002,74.32,526900,73.440858
2016-02-10,74.68,75.529999,73.449997,74.190002,362700,73.312399
2016-02-09,72.489998,75.269997,72.300003,74.410004,581100,73.529797
2016-02-08,70.559998,73.059998,69.879997,73.029999,521700,72.166117
2016-02-05,72.980003,74.660004,70.480003,71.120003,281400,70.278714
2016-02-04,73.010002,73.720001,71.879997,72.239998,365600,71.385461
2016-02-03,71.809998,73.169998,70.580002,73.150002,433000,72.2847
2016-02-02,71.480003,71.790001,70.800003,71.32,325700,70.476346
2016-02-01,72.290001,72.690002,71.589996,72.309998,284400,71.454633
2016-01-29,70.860001,72.910004,70.860001,72.900002,796100,72.037657
2016-01-28,70.82,71.32,70.410004,70.669998,420800,69.834033
2016-01-27,70.239998,71.650002,69.720001,70.25,491100,69.419003
2016-01-26,67.639999,70.620003,67.57,70.489998,582200,69.656162
2016-01-25,67.669998,67.760002,66.639999,66.860001,330300,66.069104
2016-01-22,67.480003,68.32,67.190002,68.25,252600,67.146209
2016-01-21,67.900002,68.339996,66.690002,66.699997,323100,65.621273
2016-01-20,67.349998,68.410004,66.330002,67.830002,252300,66.733003
2016-01-19,68.849998,68.849998,67.300003,68.120003,221800,67.018314
2016-01-15,67.519997,68.260002,67.00,68.07,344200,66.969119
2016-01-14,69.099998,69.18,68.129997,68.75,439100,67.638122
2016-01-13,70.129997,70.830002,68.889999,68.910004,379900,67.795538
2016-01-12,70.309998,70.919998,69.330002,69.839996,286700,68.71049
2016-01-11,69.93,70.360001,69.07,69.82,312000,68.690817
2016-01-08,69.959999,70.629997,69.669998,69.879997,565000,68.749844
2016-01-07,70.019997,70.709999,69.599998,69.760002,321200,68.63179
2016-01-06,70.699997,71.589996,70.360001,71.18,389900,70.028823
2016-01-05,72.080002,72.080002,71.010002,71.669998,323800,70.510896
2016-01-04,72.00,72.209999,71.230003,72.080002,288300,70.914269
2015-12-31,73.269997,73.940002,72.620003,72.650002,157800,71.47505
2015-12-30,73.900002,74.32,73.00,73.620003,100800,72.429364
2015-12-29,74.00,74.470001,73.599998,74.040001,80800,72.842569
2015-12-28,72.980003,73.940002,72.910004,73.709999,137500,72.517904
2015-12-24,73.230003,73.639999,72.760002,73.300003,78800,72.114539
2015-12-23,72.839996,73.519997,72.449997,73.459999,216500,72.271948
2015-12-22,71.839996,72.510002,71.400002,72.309998,122300,71.140545
2015-12-21,71.480003,71.980003,71.209999,71.660004,224100,70.501063
2015-12-18,72.260002,72.260002,71.089996,71.110001,809900,69.959955
2015-12-17,73.580002,73.949997,72.260002,72.260002,160400,71.091358
2015-12-16,73.360001,73.809998,72.589996,73.449997,191200,72.262107
2015-12-15,73.00,73.410004,72.470001,73.059998,185300,71.878415
2015-12-14,72.769997,73.300003,72.400002,72.550003,246800,71.376669
2015-12-11,72.720001,73.559998,72.239998,72.860001,169300,71.681653
2015-12-10,73.239998,73.699997,72.730003,73.43,175500,72.242434
2015-12-09,73.269997,74.440002,72.849998,73.080002,235500,71.898096
2015-12-08,73.50,74.059998,73.129997,73.599998,225000,72.409683
2015-12-07,74.029999,74.599998,73.629997,74.220001,242800,73.019658
2015-12-04,73.50,74.519997,73.50,74.349998,89500,73.147553
2015-12-03,74.309998,74.589996,72.919998,73.459999,182700,72.271948
2015-12-02,74.800003,75.269997,73.730003,73.93,156900,72.734348
2015-12-01,74.699997,75.279999,74.57,74.970001,125300,73.757529
2015-11-30,75.169998,75.489998,74.07,74.480003,278700,73.275456
2015-11-27,74.800003,75.360001,74.300003,75.010002,65200,73.796883
2015-11-25,74.43,75.559998,74.220001,74.870003,265300,73.659148
2015-11-24,73.410004,74.720001,73.139999,74.279999,226100,73.078686
2015-11-23,74.239998,74.519997,73.699997,73.849998,239000,72.65564
2015-11-20,73.940002,74.550003,73.720001,74.290001,157300,73.088526
2015-11-19,73.32,73.779999,72.75,73.68,138600,72.488391
2015-11-18,72.220001,73.510002,71.919998,73.43,181300,72.242434
2015-11-17,72.290001,72.879997,71.790001,71.970001,172600,70.806047
2015-11-16,71.870003,72.18,71.150002,72.099998,196700,70.933942
2015-11-13,70.68,71.699997,70.57,71.519997,539600,70.36332
2015-11-12,72.50,72.910004,70.769997,70.800003,304800,69.654971
2015-11-11,73.32,73.620003,72.910004,73.059998,153800,71.878415
2015-11-10,72.419998,73.040001,71.879997,73.040001,293800,71.858742
2015-11-09,73.050003,73.419998,71.82,72.449997,261900,71.27828
2015-11-06,73.480003,73.480003,72.68,73.260002,288400,72.075185
2015-11-05,73.330002,73.790001,72.989998,73.449997,225300,72.262107
2015-11-04,74.75,74.75,73.050003,73.230003,423800,72.045672
2015-11-03,75.779999,75.959999,74.669998,74.760002,292000,73.550926
2015-11-02,74.769997,75.879997,73.839996,75.720001,432400,74.495399
2015-10-30,71.620003,75.25,71.620003,73.559998,948300,72.075181
2015-10-29,70.230003,72.349998,70.230003,72.339996,391400,70.879805
2015-10-28,71.059998,71.849998,70.720001,71.849998,319200,70.399698
2015-10-27,71.25,71.32,69.629997,70.949997,281900,69.517863
2015-10-26,71.300003,71.68,71.050003,71.300003,244900,69.860804
2015-10-23,71.959999,72.169998,71.059998,71.400002,256900,69.958784
2015-10-22,70.279999,71.360001,70.209999,71.290001,268300,69.851004
2015-10-21,70.529999,70.800003,69.800003,69.870003,194700,68.459669
2015-10-20,69.910004,70.82,69.910004,70.489998,220400,69.067149
2015-10-19,69.610001,70.040001,69.540001,69.989998,186200,68.577242
2015-10-16,69.690002,69.910004,69.260002,69.839996,212500,68.430268
2015-10-15,69.879997,70.110001,68.949997,69.690002,236300,68.283302
2015-10-14,70.110001,70.720001,69.57,69.669998,131000,68.263701
2015-10-13,70.400002,70.879997,69.93,70.160004,257900,68.743816
2015-10-12,70.309998,70.639999,69.919998,70.57,235100,69.145536
2015-10-09,69.690002,70.699997,69.690002,70.260002,252100,68.841796
2015-10-08,68.760002,69.769997,68.50,69.629997,185000,68.224508
2015-10-07,68.010002,68.730003,67.720001,68.68,222100,67.293687
2015-10-06,68.529999,68.669998,67.610001,67.68,306300,66.313872
2015-10-05,68.43,69.029999,68.050003,68.410004,271600,67.02914
2015-10-02,66.639999,68.00,66.160004,67.980003,216000,66.607819
2015-10-01,65.949997,67.43,65.790001,67.239998,569600,65.882751
2015-09-30,65.510002,66.279999,65.309998,65.959999,311400,64.628589
2015-09-29,64.139999,65.00,63.619999,64.940002,445500,63.629181
2015-09-28,65.139999,65.25,64.099998,64.150002,218700,62.855126
2015-09-25,65.690002,65.690002,64.839996,65.529999,412100,64.207268
2015-09-24,66.269997,66.269997,65.160004,65.599998,275300,64.275855
2015-09-23,66.919998,67.059998,65.839996,66.68,359100,65.334057
2015-09-22,66.879997,67.419998,66.660004,66.739998,171700,65.392843
2015-09-21,67.480003,68.339996,67.139999,67.629997,193600,66.264878
2015-09-18,67.790001,68.290001,67.00,67.150002,448900,65.794571
2015-09-17,69.150002,69.379997,68.360001,68.419998,178500,67.038933
2015-09-16,68.309998,69.160004,67.879997,69.040001,213500,67.646421
2015-09-15,67.540001,68.440002,67.370003,68.410004,523700,67.02914
2015-09-14,67.279999,67.279999,66.709999,66.720001,175300,65.37325
2015-09-11,66.68,67.419998,66.080002,67.400002,266700,66.039525
2015-09-10,67.209999,67.970001,66.580002,66.910004,366100,65.559418
2015-09-09,68.019997,68.620003,67.110001,67.779999,432300,66.411852
2015-09-08,67.75,68.360001,67.279999,68.019997,370200,66.647005
2015-09-04,66.699997,67.459999,66.559998,67.269997,244300,65.912144
2015-09-03,66.699997,67.459999,66.639999,67.379997,159400,66.019924
2015-09-02,66.550003,66.949997,65.50,66.480003,248300,65.138097
2015-09-01,66.07,66.919998,65.779999,65.800003,357000,64.471823
2015-08-31,67.389999,67.790001,67.080002,67.360001,242700,66.000331
2015-08-28,67.220001,67.760002,66.940002,67.709999,186200,66.343265
2015-08-27,67.209999,67.760002,66.43,67.660004,280700,66.294279
2015-08-26,66.699997,66.769997,65.410004,66.709999,301200,65.36345
2015-08-25,67.879997,68.089996,65.470001,65.540001,317800,64.217069
2015-08-24,64.800003,67.620003,64.660004,66.150002,508300,64.814756
2015-08-21,67.120003,68.120003,67.040001,67.610001,443600,66.245285
2015-08-20,68.639999,69.089996,68.00,68.07,236500,66.695999
2015-08-19,69.519997,69.720001,68.550003,69.110001,206200,67.715007
2015-08-18,69.800003,70.279999,69.459999,69.830002,148000,68.420475
2015-08-17,69.620003,70.339996,69.150002,70.089996,161600,68.675222
2015-08-14,69.00,69.93,68.849998,69.870003,175700,68.459669
2015-08-13,68.510002,69.580002,68.300003,69.029999,241900,67.63662
2015-08-12,68.629997,69.620003,67.93,68.779999,212200,67.391667
2015-08-11,69.400002,69.949997,68.599998,69.18,385900,67.783594
2015-08-10,69.010002,70.099998,68.839996,69.919998,181500,68.508655
2015-08-07,68.279999,68.900002,67.93,68.790001,240600,67.401467
2015-08-06,68.779999,69.110001,68.190002,68.370003,243300,66.989947
2015-08-05,68.150002,69.339996,68.099998,68.809998,249400,67.42106
2015-08-04,67.400002,68.190002,67.230003,67.93,325400,66.558826
2015-08-03,67.779999,68.059998,66.540001,67.279999,364200,65.921944
2015-07-31,67.790001,68.709999,67.50,67.790001,623300,66.421652
2015-07-30,66.32,67.93,66.050003,67.50,1281300,66.137505
2015-07-29,64.00,67.389999,63.509998,66.349998,758600,65.010716
2015-07-28,61.619999,62.349998,61.27,62.299999,243700,61.042467
2015-07-27,61.220001,61.57,60.73,61.380001,254900,60.141039
2015-07-24,62.34,62.610001,61.50,61.75,304100,60.229222
2015-07-23,63.16,63.259998,62.41,62.459999,156600,60.921735
2015-07-22,62.970001,63.490002,62.950001,63.00,316000,61.448437
2015-07-21,63.759998,64.089996,62.950001,63.080002,213600,61.526469
2015-07-20,63.82,64.080002,63.610001,63.959999,147700,62.384793
2015-07-17,64.150002,64.330002,63.759998,63.93,216300,62.355533
2015-07-16,64.220001,64.550003,64.120003,64.300003,140800,62.716424
2015-07-15,63.880001,64.279999,63.630001,63.939999,269400,62.365285
2015-07-14,64.019997,64.290001,63.790001,63.939999,304000,62.365285
2015-07-13,63.779999,64.349998,63.779999,64.260002,262000,62.677408
2015-07-10,63.959999,64.449997,63.509998,63.68,173500,62.11169
2015-07-09,63.889999,64.040001,63.25,63.41,360600,61.848339
2015-07-08,63.889999,64.389999,63.25,63.439999,350800,61.877599
2015-07-07,63.740002,64.360001,63.439999,64.300003,262700,62.716424
2015-07-06,63.450001,63.990002,63.169998,63.84,229700,62.26775
2015-07-02,64.120003,64.260002,63.560001,63.790001,198500,62.218982
2015-07-01,64.139999,64.379997,63.740002,63.849998,434100,62.277502
2015-06-30,64.07,64.300003,63.619999,63.77,478200,62.199474
2015-06-29,64.150002,64.559998,63.68,63.740002,262500,62.170214
2015-06-26,64.400002,64.629997,64.059998,64.480003,301500,62.891991
2015-06-25,64.68,65.089996,64.029999,64.279999,325000,62.696912
2015-06-24,65.120003,65.309998,64.370003,64.449997,189100,62.862723
2015-06-23,65.57,65.629997,64.809998,65.18,381000,63.574748
2015-06-22,65.639999,65.639999,65.139999,65.50,236100,63.886867
2015-06-19,65.300003,65.830002,65.040001,65.290001,462200,63.68204
2015-06-18,64.949997,65.339996,64.489998,65.269997,210400,63.662528
2015-06-17,64.879997,65.00,64.129997,64.809998,306600,63.213858
2015-06-16,64.309998,65.779999,64.00,64.900002,579000,63.301645
2015-06-15,64.059998,64.279999,63.619999,64.269997,329600,62.687156
2015-06-12,64.50,64.75,64.139999,64.580002,247700,62.989527
2015-06-11,64.230003,64.82,64.209999,64.779999,224700,63.184598
2015-06-10,64.300003,64.559998,64.050003,64.239998,264900,62.657896
2015-06-09,63.75,64.330002,63.580002,64.150002,367100,62.570116
2015-06-08,64.239998,64.529999,63.560001,63.75,333400,62.179966
2015-06-05,63.77,64.32,63.450001,64.279999,345400,62.696912
2015-06-04,63.75,64.25,63.529999,63.919998,189400,62.345778
2015-06-03,64.25,64.559998,63.950001,64.139999,532800,62.560361
2015-06-02,63.830002,64.629997,63.470001,63.950001,302500,62.375041
2015-06-01,64.019997,64.269997,63.310001,63.900002,406200,62.326273
2015-05-29,64.639999,64.849998,63.650002,63.77,227400,62.199474
2015-05-28,64.400002,64.699997,64.080002,64.489998,274100,62.901739
2015-05-27,64.019997,64.550003,63.84,64.480003,258800,62.891991
2015-05-26,64.480003,64.639999,63.68,63.970001,286600,62.394549
2015-05-22,64.75,65.010002,64.330002,64.50,313600,62.911495
2015-05-21,65.239998,65.260002,64.550003,64.919998,425200,63.32115
2015-05-20,66.089996,66.150002,65.290001,65.459999,170600,63.847851
2015-05-19,65.730003,66.309998,65.629997,66.089996,314400,64.462333
2015-05-18,65.120003,65.839996,64.959999,65.660004,220100,64.04293
2015-05-15,65.209999,65.389999,64.879997,65.199997,213600,63.594252
2015-05-14,64.629997,65.419998,64.629997,65.209999,712700,63.604008
2015-05-13,63.970001,64.50,63.970001,64.330002,601300,62.745684
2015-05-12,62.880001,63.709999,62.380001,63.509998,435800,61.945875
2015-05-11,62.970001,63.209999,62.900002,63.060001,501400,61.506961
2015-05-08,63.700001,63.700001,62.950001,63.16,522600,61.604496
2015-05-07,63.02,63.130001,62.720001,63.00,699400,61.448437
2015-05-06,63.099998,63.34,62.610001,63.099998,640900,61.545973
2015-05-05,63.740002,64.080002,62.869999,63.00,659200,61.448437
2015-05-04,64.339996,64.980003,63.900002,63.959999,922000,62.384793
2015-05-01,64.25,64.93,63.009998,64.050003,1366000,62.472581
2015-04-30,62.150002,62.790001,62.00,62.07,407400,60.541341
2015-04-29,62.639999,62.740002,62.119999,62.549999,256600,61.009519
2015-04-28,62.720001,63.049999,62.450001,62.779999,254100,61.233854
2015-04-27,63.380001,63.59,62.549999,62.790001,491400,61.24361
2015-04-24,63.150002,63.439999,62.639999,63.290001,282600,61.458191
2015-04-23,62.700001,63.110001,62.700001,62.939999,289900,61.118319
2015-04-22,62.68,63.470001,62.439999,62.880001,169200,61.060058
2015-04-21,63.119999,63.279999,62.50,62.720001,235900,60.904689
2015-04-20,63.07,63.259998,62.73,62.810001,300100,60.992084
2015-04-17,62.720001,62.990002,61.98,62.84,310900,61.021214
2015-04-16,63.32,63.52,62.830002,63.009998,380300,61.186292
2015-04-15,63.580002,63.599998,62.91,63.00,247400,61.176583
2015-04-14,63.470001,63.73,63.139999,63.299999,320900,61.4679
2015-04-13,63.049999,63.669998,63.009998,63.43,343300,61.594138
2015-04-10,63.439999,63.57,63.18,63.490002,316000,61.652403
2015-04-09,63.290001,63.459999,62.860001,63.330002,191300,61.497034
2015-04-08,63.119999,63.50,62.849998,63.419998,184600,61.584425
2015-04-07,63.299999,63.50,62.990002,63.110001,157400,61.2834
2015-04-06,62.919998,63.43,62.759998,63.380001,393100,61.545586
2015-04-02,63.509998,63.84,62.959999,63.150002,346700,61.322243
2015-04-01,63.580002,63.830002,62.82,63.650002,403300,61.807772
2015-03-31,63.259998,63.799999,63.209999,63.52,349600,61.681533
2015-03-30,63.41,63.98,63.259998,63.700001,263400,61.856324
2015-03-27,63.029999,63.32,62.77,63.18,163000,61.351374
2015-03-26,62.82,63.169998,62.709999,62.98,254200,61.157162
2015-03-25,63.43,63.91,62.869999,62.98,346000,61.157162
2015-03-24,63.259998,63.790001,63.139999,63.50,477100,61.662112
2015-03-23,63.349998,63.900002,63.040001,63.389999,331000,61.555295
2015-03-20,63.73,63.939999,63.209999,63.23,608400,61.399926
2015-03-19,63.73,64.129997,63.189999,63.639999,296600,61.798059
2015-03-18,63.490002,64.540001,63.23,63.950001,459700,62.099088
2015-03-17,63.650002,63.93,62.57,63.610001,335600,61.768929
2015-03-16,63.43,64.00,63.32,63.790001,193800,61.943719
2015-03-13,63.43,63.73,62.860001,63.099998,236900,61.273688
2015-03-12,63.709999,64.160004,63.23,63.560001,312400,61.720377
2015-03-11,63.75,63.82,62.709999,63.360001,478200,61.526164
2015-03-10,63.630001,64.019997,63.400002,63.75,328200,61.904876
2015-03-09,64.129997,64.699997,63.91,64.18,258900,62.322431
2015-03-06,64.800003,65.010002,63.919998,64.269997,271200,62.409822
2015-03-05,65.559998,65.919998,64.629997,65.029999,254200,63.147828
2015-03-04,65.919998,66.029999,64.870003,65.620003,230200,63.720755
2015-03-03,66.080002,66.449997,65.599998,65.889999,186900,63.982937
2015-03-02,65.870003,66.559998,65.529999,66.50,251200,64.575282
2015-02-27,66.169998,66.379997,65.559998,65.870003,264700,63.963519
2015-02-26,65.849998,66.349998,65.739998,66.260002,169000,64.342231
2015-02-25,66.18,66.379997,65.449997,65.849998,314400,63.944094
2015-02-24,66.139999,66.400002,65.68,66.300003,239000,64.381074
2015-02-23,65.919998,66.400002,65.57,66.269997,168000,64.351936
2015-02-20,65.940002,66.260002,65.139999,66.169998,271400,64.254832
2015-02-19,65.410004,66.269997,65.139999,65.839996,221900,63.934381
2015-02-18,64.989998,65.830002,64.989998,65.830002,339500,63.924676
2015-02-17,64.129997,65.690002,64.129997,65.25,288300,63.361461
2015-02-13,64.110001,64.739998,63.889999,64.559998,135600,62.69143
2015-02-12,63.950001,64.550003,63.669998,64.07,442700,62.215614
2015-02-11,63.50,64.050003,63.380001,63.68,455300,61.836902
2015-02-10,64.040001,64.309998,63.41,63.73,531600,61.885454
2015-02-09,64.040001,64.43,63.18,63.650002,622300,61.807772
2015-02-06,64.089996,66.599998,63.759998,64.330002,928000,62.468091
2015-02-05,63.740002,64.339996,63.400002,63.810001,389900,61.963141
2015-02-04,63.259998,63.970001,62.950001,63.220001,406900,61.390217
2015-02-03,63.66,64.419998,63.310001,63.470001,335200,61.632981
2015-02-02,63.23,63.849998,62.709999,63.540001,525700,61.700955
2015-01-30,62.580002,63.349998,62.18,63.110001,383400,61.2834
2015-01-29,62.389999,63.23,61.389999,63.00,251300,61.176583
2015-01-28,63.169998,63.580002,61.889999,62.09,365100,60.292922
2015-01-27,63.060001,63.549999,62.599998,62.889999,509500,61.069767
2015-01-26,63.580002,64.010002,63.18,63.77,292000,61.924298
2015-01-23,64.739998,64.910004,63.75,63.759998,237400,61.64269
2015-01-22,64.620003,65.07,63.830002,64.709999,407500,62.561143
2015-01-21,63.82,64.709999,63.650002,64.339996,166400,62.203427
2015-01-20,64.300003,64.970001,63.669998,64.209999,198600,62.077747
2015-01-16,63.73,64.68,63.369999,64.470001,153200,62.329115
2015-01-15,64.660004,65.019997,63.450001,63.779999,302100,61.662026
2015-01-14,64.279999,64.980003,63.900002,64.599998,222600,62.454796
2015-01-13,65.790001,66.529999,64.260002,65.169998,276200,63.005867
2015-01-12,65.489998,66.139999,64.949997,65.370003,215000,63.19923
2015-01-09,66.43,66.699997,65.419998,65.470001,225500,63.295908
2015-01-08,64.769997,66.139999,64.769997,66.110001,305300,63.914654
2015-01-07,64.510002,64.620003,63.869999,64.279999,261400,62.145422
2015-01-06,64.849998,65.00,63.48,63.91,289200,61.78771
2015-01-05,66.199997,66.629997,64.00,64.599998,591700,62.454796
2015-01-02,67.059998,67.68,65.910004,66.650002,224400,64.436723
2014-12-31,68.089996,68.370003,66.769997,66.839996,244000,64.620409
2014-12-30,68.330002,68.669998,67.910004,68.099998,98600,65.838569
2014-12-29,67.589996,68.620003,67.589996,68.379997,111700,66.10927
2014-12-26,67.870003,68.169998,67.300003,67.860001,96400,65.606541
2014-12-24,67.040001,67.839996,67.040001,67.559998,90400,65.316501
2014-12-23,67.169998,67.620003,66.830002,67.440002,245200,65.20049
2014-12-22,67.410004,67.50,66.879997,67.089996,192700,64.862107
2014-12-19,66.650002,67.269997,66.620003,67.129997,627400,64.900779
2014-12-18,66.190002,66.779999,65.480003,66.610001,225000,64.398051
2014-12-17,64.279999,65.32,63.580002,65.260002,235400,63.092882
2014-12-16,63.759998,64.419998,63.400002,63.82,255600,61.700699
2014-12-15,64.860001,65.029999,63.82,63.860001,163100,61.739371
2014-12-12,65.300003,65.489998,64.589996,64.639999,137400,62.493468
2014-12-11,65.830002,66.199997,65.239998,65.68,129900,63.498933
2014-12-10,66.239998,66.239998,65.220001,65.389999,174900,63.218563
2014-12-09,65.389999,66.290001,65.199997,66.260002,192500,64.059675
2014-12-08,66.190002,66.580002,65.660004,65.879997,226400,63.692289
2014-12-05,66.330002,66.709999,66.099998,66.260002,233800,64.059675
2014-12-04,66.449997,66.900002,66.050003,66.57,203000,64.359378
2014-12-03,65.540001,66.489998,65.449997,66.43,232200,64.224028
2014-12-02,65.199997,65.889999,65.139999,65.349998,257500,63.17989
2014-12-01,64.82,65.400002,64.529999,65.099998,193900,62.938192
2014-11-28,65.400002,65.599998,64.919998,65.25,105000,63.083212
2014-11-26,65.309998,65.43,64.910004,65.290001,159300,63.121885
2014-11-25,65.449997,65.449997,65.019997,65.269997,185000,63.102545
2014-11-24,65.209999,65.379997,65.029999,65.339996,127600,63.17022
2014-11-21,65.300003,65.410004,64.709999,65.099998,216400,62.938192
2014-11-20,64.360001,65.050003,64.360001,64.75,161600,62.599816
2014-11-19,65.00,65.00,64.489998,64.830002,204600,62.677161
2014-11-18,65.550003,65.809998,64.870003,64.989998,384800,62.831844
2014-11-17,64.959999,65.610001,64.809998,65.480003,298700,63.305578
2014-11-14,64.910004,65.25,64.599998,64.830002,294300,62.677161
2014-11-13,65.400002,65.75,64.720001,64.949997,119100,62.793171
2014-11-12,64.949997,65.230003,64.760002,65.169998,177900,63.005867
2014-11-11,65.50,65.870003,65.050003,65.260002,291800,63.092882
2014-11-10,64.839996,65.57,64.779999,65.550003,326100,63.373253
2014-11-07,63.970001,64.849998,63.860001,64.769997,432000,62.619149
2014-11-06,63.59,64.029999,63.16,63.799999,215800,61.681362
2014-11-05,62.799999,63.689999,62.290001,63.639999,445300,61.526676
2014-11-04,61.509998,62.360001,61.34,62.310001,335800,60.240843
2014-11-03,61.73,62.290001,61.419998,61.73,536000,59.680102
2014-10-31,58.360001,62.689999,58.360001,62.240002,1044500,59.902465
2014-10-30,60.700001,61.849998,60.380001,61.709999,335300,59.392367
2014-10-29,61.34,61.560001,60.50,61.029999,244100,58.737906
2014-10-28,60.790001,61.50,60.509998,61.25,254300,58.949644
2014-10-27,61.369999,61.369999,60.009998,60.369999,397600,58.102693
2014-10-24,61.720001,62.080002,61.48,61.919998,156100,59.59448
2014-10-23,61.18,62.369999,60.790001,61.779999,440900,59.459738
2014-10-22,61.419998,61.849998,60.549999,60.59,277000,58.314432
2014-10-21,60.279999,61.299999,60.279999,61.25,350400,58.949644
2014-10-20,58.709999,60.080002,58.459999,60.040001,492600,57.785089
2014-10-17,58.299999,59.07,58.049999,58.700001,1066900,56.495415
2014-10-16,55.740002,57.779999,55.66,57.650002,608900,55.48485
2014-10-15,55.599998,57.09,55.59,56.639999,647400,54.512781
2014-10-14,56.560001,56.759998,56.009998,56.389999,631600,54.27217
2014-10-13,57.41,58.119999,56.029999,56.18,552600,54.070058
2014-10-10,58.720001,59.139999,57.439999,57.50,404600,55.340482
2014-10-09,59.889999,60.119999,58.220001,58.560001,364700,56.360674
2014-10-08,59.02,60.02,58.330002,59.919998,265100,57.669593
2014-10-07,60.080002,60.080002,58.919998,58.950001,368300,56.736026
2014-10-06,60.25,60.650002,59.900002,60.23,208000,57.967952
2014-10-03,59.599998,60.209999,59.50,60.110001,281400,57.85246
2014-10-02,59.360001,59.669998,58.91,59.330002,212200,57.101755
2014-10-01,60.400002,60.740002,59.110001,59.259998,523900,57.034381
2014-09-30,61.580002,61.580002,60.59,60.700001,329300,58.420301
2014-09-29,60.860001,61.84,60.700001,61.75,310700,59.430866
2014-09-26,60.880001,61.50,60.650002,61.380001,381500,59.074763
2014-09-25,60.73,61.009998,60.57,60.84,379600,58.555043
2014-09-24,60.75,61.23,60.599998,61.00,234200,58.709034
2014-09-23,61.110001,61.48,60.93,60.939999,276900,58.651286
2014-09-22,61.099998,61.349998,60.73,61.200001,295300,58.901523
2014-09-19,61.610001,62.00,61.139999,61.16,585300,58.863024
2014-09-18,61.950001,62.189999,61.540001,61.599998,306400,59.286498
2014-09-17,62.529999,62.639999,61.450001,61.490002,342800,59.180632
2014-09-16,62.740002,63.040001,62.41,62.59,263800,60.239318
2014-09-15,62.880001,62.880001,62.279999,62.759998,184900,60.402932
2014-09-12,63.540001,63.740002,62.48,62.700001,209900,60.345188
2014-09-11,63.439999,63.880001,63.240002,63.790001,136600,61.394251
2014-09-10,63.869999,63.869999,63.310001,63.540001,189000,61.15364
2014-09-09,64.50,64.50,63.52,63.880001,260500,61.480871
2014-09-08,65.010002,65.370003,64.370003,64.709999,181800,62.279697
2014-09-05,64.860001,65.199997,64.510002,65.199997,162500,62.751292
2014-09-04,64.50,64.949997,63.919998,64.739998,235600,62.308569
2014-09-03,64.660004,64.690002,64.019997,64.169998,140900,61.759977
2014-09-02,64.379997,64.879997,64.150002,64.540001,272300,62.116083
2014-08-29,64.019997,64.209999,63.619999,64.150002,119200,61.740731
2014-08-28,63.93,64.220001,63.650002,64.019997,89600,61.615609
2014-08-27,64.059998,64.190002,63.66,64.00,88100,61.596363
2014-08-26,63.75,64.230003,63.669998,63.959999,135300,61.557864
2014-08-25,64.010002,64.139999,63.380001,63.720001,183600,61.32688
2014-08-22,64.040001,64.230003,63.59,63.619999,205300,61.230634
2014-08-21,64.120003,64.389999,63.77,63.93,240300,61.528992
2014-08-20,63.990002,64.110001,63.650002,63.75,220600,61.355752
2014-08-19,63.799999,64.139999,63.66,64.129997,158600,61.721478
2014-08-18,63.599998,63.720001,63.34,63.68,154800,61.288382
2014-08-15,63.310001,63.43,62.880001,63.299999,282800,60.922652
2014-08-14,63.220001,63.700001,63.029999,63.139999,193000,60.768661
2014-08-13,62.639999,63.150002,62.23,63.110001,219000,60.739789
2014-08-12,62.029999,62.48,61.77,62.349998,185500,60.00833
2014-08-11,62.68,63.049999,62.099998,62.16,143500,59.825467
2014-08-08,61.77,62.419998,61.240002,62.360001,188800,60.017957
2014-08-07,61.869999,62.049999,61.299999,61.580002,336800,59.267252
2014-08-06,60.790001,62.07,60.52,61.52,363800,59.209504
2014-08-05,61.00,61.52,60.66,60.970001,199100,58.680161
2014-08-04,61.299999,61.50,60.669998,61.380001,236100,59.074763
2014-08-01,61.07,61.450001,60.57,61.130001,473500,58.834152
2014-07-31,61.830002,61.830002,60.889999,61.099998,258700,58.805276
2014-07-30,62.73,63.029999,62.02,62.110001,308600,59.777346
2014-07-29,62.869999,63.240002,62.560001,62.630001,302400,60.277817
2014-07-28,63.110001,63.189999,62.66,62.91,353400,60.5473
2014-07-25,63.439999,64.029999,63.240002,63.50,381500,60.845657
2014-07-24,63.549999,64.209999,63.50,63.790001,240000,61.123536
2014-07-23,63.790001,64.050003,63.25,63.669998,406800,61.008549
2014-07-22,64.239998,64.650002,63.43,63.73,473400,61.066042
2014-07-21,65.68,65.68,64.989998,65.400002,176100,62.666237
2014-07-18,65.300003,66.169998,64.660004,66.050003,378100,63.289068
2014-07-17,65.879997,66.110001,64.949997,65.029999,179700,62.311701
2014-07-16,66.949997,67.07,65.919998,66.349998,347500,63.576524
2014-07-15,66.470001,67.029999,66.199997,66.82,186500,64.026878
2014-07-14,66.75,67.019997,66.290001,66.540001,187100,63.758584
2014-07-11,66.160004,66.459999,65.919998,66.349998,127000,63.576524
2014-07-10,65.459999,66.400002,65.459999,66.260002,163900,63.490289
2014-07-09,66.290001,66.580002,65.82,66.32,176600,63.547779
2014-07-08,66.260002,66.410004,65.839996,66.239998,234000,63.471121
2014-07-07,66.75,66.919998,65.970001,66.419998,136600,63.643597
2014-07-03,67.040001,67.099998,66.669998,66.970001,74500,64.17061
2014-07-02,67.32,67.559998,66.57,66.739998,115100,63.950221
2014-07-01,67.260002,68.00,67.139999,67.510002,277600,64.688038
2014-06-30,66.889999,67.370003,66.550003,67.010002,206100,64.208939
2014-06-27,66.120003,67.010002,66.120003,67.010002,513500,64.208939
2014-06-26,66.360001,66.75,65.790001,66.309998,132000,63.538195
2014-06-25,66.050003,66.709999,66.050003,66.389999,138700,63.614852
2014-06-24,66.019997,66.739998,65.889999,66.00,145200,63.241155
2014-06-23,66.809998,66.870003,66.330002,66.389999,122400,63.614852
2014-06-20,66.75,67.099998,66.440002,66.629997,223800,63.844818
2014-06-19,66.059998,66.75,66.059998,66.68,108200,63.892731
2014-06-18,66.330002,66.400002,65.75,66.07,183800,63.308229
2014-06-17,65.470001,66.900002,65.410004,66.330002,244500,63.557363
2014-06-16,66.309998,66.470001,65.559998,65.639999,172900,62.896203
2014-06-13,64.949997,66.669998,64.949997,66.410004,245000,63.63402
2014-06-12,66.43,66.860001,65.720001,66.099998,127700,63.336974
2014-06-11,66.790001,66.940002,66.440002,66.599998,98500,63.816073
2014-06-10,67.209999,67.410004,66.68,67.129997,116400,64.323918
2014-06-09,67.029999,67.580002,67.029999,67.230003,101900,64.419744
2014-06-06,66.669998,67.300003,66.489998,67.110001,128400,64.304757
2014-06-05,66.239998,66.639999,65.800003,66.529999,174000,63.749
2014-06-04,66.080002,66.389999,65.970001,66.169998,112300,63.404047
2014-06-03,66.300003,66.510002,66.050003,66.220001,126000,63.45196
2014-06-02,66.720001,66.779999,66.089996,66.50,173400,63.720255
2014-05-30,66.419998,66.660004,66.199997,66.589996,151400,63.806489
2014-05-29,66.160004,66.389999,65.699997,66.370003,153200,63.595692
2014-05-28,66.019997,66.160004,65.440002,65.959999,213300,63.202826
2014-05-27,66.139999,66.139999,65.800003,65.949997,185800,63.193242
2014-05-23,65.940002,66.300003,65.790001,65.989998,155000,63.231571
2014-05-22,66.07,66.290001,65.790001,65.919998,149200,63.164498
2014-05-21,66.050003,66.230003,65.660004,66.019997,129500,63.260316
2014-05-20,66.339996,66.669998,65.339996,65.809998,159400,63.059095
2014-05-19,66.150002,67.18,65.949997,66.629997,172300,63.844818
2014-05-16,66.010002,66.220001,65.529999,66.139999,117800,63.375303
2014-05-15,66.529999,66.540001,65.669998,65.980003,120700,63.221994
2014-05-14,66.870003,67.230003,66.519997,66.779999,293400,63.98855
2014-05-13,67.739998,67.839996,66.769997,66.989998,165300,64.189771
2014-05-12,66.959999,67.589996,66.589996,67.50,133800,64.678454
2014-05-09,66.470001,66.879997,65.980003,66.589996,158400,63.806489
2014-05-08,66.510002,67.260002,66.330002,66.699997,145100,63.911892
2014-05-07,66.239998,66.489998,65.639999,66.480003,340100,63.701094
2014-05-06,66.480003,66.629997,66.139999,66.370003,136300,63.595692
2014-05-05,66.139999,66.93,66.050003,66.739998,238700,63.950221
2014-05-02,67.339996,67.489998,66.50,66.68,193500,63.892731
2014-05-01,67.650002,67.720001,67.010002,67.190002,227600,64.381415
2014-04-30,66.800003,67.470001,66.580002,67.419998,264600,64.601797
2014-04-29,66.93,67.349998,66.739998,67.120003,178600,64.314341
2014-04-28,66.910004,67.480003,66.32,66.900002,347100,64.103536
2014-04-25,67.199997,67.559998,66.510002,67.139999,143500,64.065205
2014-04-24,67.309998,67.400002,66.389999,67.360001,257100,64.275131
2014-04-23,67.440002,67.779999,67.129997,67.199997,113200,64.122455
2014-04-22,67.220001,67.739998,66.919998,67.620003,278800,64.523226
2014-04-21,66.519997,67.110001,66.230003,67.080002,148300,64.007956
2014-04-17,66.449997,66.889999,66.209999,66.57,411300,63.52131
2014-04-16,66.290001,66.699997,66.190002,66.400002,143400,63.359097
2014-04-15,65.510002,66.239998,64.589996,66.029999,212700,63.006039
2014-04-14,65.129997,65.739998,64.650002,65.190002,225900,62.204512
2014-04-11,67.349998,67.349998,64.540001,64.720001,189000,61.756035
2014-04-10,66.279999,66.389999,65.459999,65.709999,200500,62.700695
2014-04-09,65.860001,66.610001,65.830002,66.239998,204100,63.206421
2014-04-08,65.489998,65.900002,65.029999,65.849998,169200,62.834282
2014-04-07,65.870003,65.870003,65.220001,65.419998,146800,62.423975
2014-04-04,67.099998,67.190002,65.830002,66.040001,157900,63.015583
2014-04-03,67.260002,67.510002,66.290001,66.68,247100,63.626273
2014-04-02,66.959999,67.410004,66.610001,67.139999,269600,64.065205
2014-04-01,66.25,67.120003,65.860001,67.050003,259100,63.979331
2014-03-31,64.699997,66.25,64.459999,66.099998,225500,63.072833
2014-03-28,63.810001,64.610001,63.810001,64.269997,126600,61.32664
2014-03-27,63.400002,63.73,63.110001,63.689999,102600,60.773204
2014-03-26,64.540001,64.540001,63.509998,63.57,155200,60.6587
2014-03-25,64.349998,64.669998,63.880001,64.160004,160700,61.221684
2014-03-24,64.540001,65.220001,63.470001,64.190002,157200,61.250309
2014-03-21,64.889999,65.519997,64.57,64.75,328800,61.78466
2014-03-20,64.809998,64.970001,64.519997,64.660004,134800,61.698786
2014-03-19,65.269997,65.760002,64.470001,64.860001,160400,61.889623
2014-03-18,65.010002,65.510002,64.940002,65.470001,146100,62.471688
2014-03-17,64.720001,65.230003,64.709999,64.959999,135600,61.985042
2014-03-14,64.150002,64.970001,63.990002,64.510002,141500,61.555654
2014-03-13,65.269997,65.419998,64.099998,64.150002,158700,61.21214
2014-03-12,64.779999,65.139999,64.510002,65.040001,218700,62.06138
2014-03-11,65.75,65.830002,64.900002,65.059998,132200,62.080461
2014-03-10,65.709999,65.860001,65.260002,65.559998,181300,62.557563
2014-03-07,66.00,66.269997,65.489998,65.730003,149900,62.719783
2014-03-06,66.040001,66.139999,65.669998,65.75,166300,62.738864
2014-03-05,65.779999,66.040001,65.43,65.93,143100,62.91062
2014-03-04,66.25,66.370003,65.480003,65.75,200400,62.738864
2014-03-03,65.529999,65.809998,65.099998,65.330002,293200,62.3381
2014-02-28,65.510002,66.739998,65.510002,66.169998,284300,63.139627
2014-02-27,64.879997,65.720001,64.849998,65.510002,212500,62.509857
2014-02-26,64.82,65.639999,64.82,64.940002,188200,61.965961
2014-02-25,64.290001,64.970001,64.25,64.599998,152500,61.641528
2014-02-24,64.699997,65.230003,64.339996,64.370003,181200,61.422066
2014-02-21,64.93,65.040001,64.480003,64.639999,117200,61.679697
2014-02-20,64.459999,65.449997,64.260002,64.849998,275900,61.880079
2014-02-19,64.769997,65.480003,64.459999,64.519997,216000,61.56519
2014-02-18,64.860001,65.150002,64.309998,64.980003,214000,62.00413
2014-02-14,64.209999,64.940002,64.209999,64.769997,104800,61.803741
2014-02-13,63.540001,64.540001,63.540001,64.419998,139600,61.469771
2014-02-12,63.799999,64.18,63.700001,63.939999,151700,61.011754
2014-02-11,63.389999,63.889999,63.139999,63.830002,265100,60.906795
2014-02-10,63.200001,63.720001,62.869999,63.41,237600,60.506028
2014-02-07,63.799999,63.91,62.689999,63.490002,210700,60.582366
2014-02-06,62.389999,62.630001,62.099998,62.50,281200,59.637703
2014-02-05,61.98,62.560001,61.360001,62.299999,205200,59.446862
2014-02-04,61.900002,62.32,61.18,62.130001,439700,59.284649
2014-02-03,63.860001,64.00,61.299999,61.419998,669900,58.607162
2014-01-31,63.23,64.230003,63.110001,63.799999,346700,60.878166
2014-01-30,64.029999,64.260002,63.529999,64.209999,303800,61.26939
2014-01-29,63.150002,63.959999,62.84,63.360001,409500,60.458318
2014-01-28,63.639999,63.779999,63.299999,63.669998,269700,60.754119
2014-01-27,64.160004,64.620003,63.400002,63.400002,351700,60.496487
2014-01-24,66.050003,66.050003,64.440002,64.480003,312400,61.288478
2014-01-23,66.93,66.980003,65.910004,66.300003,332800,63.018395
2014-01-22,67.43,67.43,66.860001,66.989998,369100,63.674237
2014-01-21,67.57,67.730003,66.849998,67.169998,395100,63.845328
2014-01-17,68.029999,68.190002,67.199997,67.239998,1867400,63.911863
2014-01-16,67.900002,68.269997,67.790001,68.00,466900,64.634248
2014-01-15,68.599998,68.779999,67.629997,68.00,488700,64.634248
2014-01-14,67.419998,68.620003,67.300003,68.25,459100,64.871874
2014-01-13,68.190002,68.660004,67.00,67.129997,531900,63.807307
2014-01-10,67.739998,68.160004,67.599998,68.050003,366800,64.681776
2014-01-09,68.360001,68.68,67.480003,67.75,402300,64.396622
2014-01-08,67.110001,68.290001,66.889999,68.209999,594200,64.833853
2014-01-07,66.839996,66.879997,66.269997,66.809998,384500,63.503146
2014-01-06,67.129997,67.199997,66.25,66.50,333500,63.208493
2014-01-03,66.949997,67.300003,66.489998,66.849998,266700,63.541167
2014-01-02,67.760002,68.010002,66.970001,67.129997,257400,63.807307
2013-12-31,67.510002,67.860001,67.349998,67.809998,154300,64.45365
2013-12-30,66.760002,67.57,66.660004,67.529999,158500,64.18751
2013-12-27,66.949997,67.099998,66.349998,66.720001,106900,63.417605
2013-12-26,66.610001,66.870003,66.129997,66.790001,137200,63.484139
2013-12-24,65.93,66.400002,65.629997,66.389999,110400,63.103937
2013-12-23,65.699997,65.860001,65.239998,65.849998,146500,62.590664
2013-12-20,64.830002,65.459999,64.779999,65.360001,333600,62.124919
2013-12-19,64.879997,65.400002,64.50,64.779999,166000,61.573625
2013-12-18,64.730003,65.120003,63.82,65.080002,226200,61.858779
2013-12-17,64.279999,64.68,64.139999,64.470001,196500,61.278971
2013-12-16,64.089996,64.559998,63.869999,64.370003,186400,61.183922
2013-12-13,63.470001,63.860001,63.43,63.700001,119300,60.547083
2013-12-12,63.189999,63.66,63.189999,63.400002,140200,60.261933
2013-12-11,64.400002,64.519997,63.139999,63.209999,219100,60.081335
2013-12-10,64.400002,64.57,64.190002,64.279999,155100,61.098373
2013-12-09,64.57,64.699997,64.18,64.589996,254000,61.393027
2013-12-06,64.410004,64.809998,63.939999,64.690002,139400,61.488083
2013-12-05,63.650002,64.110001,63.41,64.080002,146600,60.908275
2013-12-04,63.849998,64.129997,63.099998,63.810001,154300,60.651639
2013-12-03,64.75,64.93,63.959999,64.209999,264300,61.031838
2013-12-02,64.959999,65.730003,64.389999,64.970001,184800,61.754223
2013-11-29,64.949997,65.25,64.879997,64.919998,139400,61.706695
2013-11-27,64.629997,65.040001,64.349998,64.949997,417500,61.735209
2013-11-26,64.220001,64.589996,63.720001,64.370003,163300,61.183922
2013-11-25,64.419998,64.610001,64.099998,64.239998,577500,61.060352
2013-11-22,64.18,64.580002,63.799999,64.199997,266300,61.022331
2013-11-21,64.089996,64.440002,63.900002,64.099998,353300,60.927282
2013-11-20,64.57,64.800003,63.75,63.889999,697600,60.727677
2013-11-19,64.709999,64.900002,64.309998,64.389999,166400,61.202929
2013-11-18,65.089996,65.099998,64.68,64.779999,202900,61.573625
2013-11-15,64.879997,64.980003,64.699997,64.940002,195400,61.725709
2013-11-14,65.160004,65.230003,64.660004,64.919998,159400,61.706695
2013-11-13,63.939999,65.099998,63.939999,65.089996,106800,61.868279
2013-11-12,64.75,64.75,63.990002,64.400002,154300,61.212436
2013-11-11,64.190002,64.779999,64.139999,64.720001,112200,61.516597
2013-11-08,63.290001,64.440002,63.290001,64.25,101800,61.069859
2013-11-07,64.580002,64.769997,63.360001,63.41,168100,60.271436
2013-11-06,64.080002,64.660004,63.610001,64.370003,173300,61.183922
2013-11-05,64.00,64.050003,63.07,63.779999,194500,60.623121
2013-11-04,63.939999,64.139999,63.490002,64.080002,198100,60.908275
2013-11-01,64.419998,64.699997,63.52,63.889999,188000,60.490053
2013-10-31,63.099998,64.480003,62.209999,64.160004,438600,60.745689
2013-10-30,64.010002,64.349998,63.43,63.560001,221600,60.177616
2013-10-29,64.169998,64.529999,63.48,64.010002,140500,60.60367
2013-10-28,64.120003,64.50,63.93,64.169998,104700,60.755152
2013-10-25,63.59,64.339996,63.59,64.279999,81800,60.859299
2013-10-24,63.43,63.919998,63.119999,63.560001,186600,60.177616
2013-10-23,63.93,64.18,63.009998,63.349998,127100,59.978789
2013-10-22,63.810001,64.360001,63.540001,64.239998,81200,60.821426
2013-10-21,63.18,63.57,63.07,63.549999,99800,60.168146
2013-10-18,62.759998,63.290001,62.57,63.189999,118200,59.827303
2013-10-17,61.41,62.77,61.349998,62.75,143100,59.41072
2013-10-16,61.43,62.130001,61.419998,61.650002,119700,58.369258
2013-10-15,61.669998,61.709999,61.049999,61.240002,138400,57.981077
2013-10-14,61.080002,61.939999,60.790001,61.919998,124900,58.624887
2013-10-11,60.669998,61.509998,60.419998,61.450001,95900,58.179901
2013-10-10,60.48,60.950001,60.369999,60.93,88500,57.687572
2013-10-09,60.18,60.290001,59.459999,59.77,312300,56.589303
2013-10-08,59.959999,60.639999,59.959999,60.099998,340900,56.90174
2013-10-07,59.77,60.32,59.189999,60.259998,304900,57.053225
2013-10-04,59.66,60.450001,59.57,60.130001,142400,56.930146
2013-10-03,59.919998,59.950001,59.23,59.73,208500,56.55143
2013-10-02,60.200001,60.369999,59.439999,60.279999,280600,57.072161
2013-10-01,59.98,61.66,59.889999,61.09,477500,57.839058
2013-09-30,59.25,60.169998,59.150002,60.130001,321500,56.930146
2013-09-27,60.299999,60.459999,59.630001,59.650002,267700,56.47569
2013-09-26,60.490002,60.73,60.110001,60.57,139700,57.346729
2013-09-25,60.330002,60.509998,59.900002,60.259998,172500,57.053225
2013-09-24,60.369999,60.75,60.080002,60.41,141200,57.195244
2013-09-23,60.189999,60.66,59.950001,60.400002,217800,57.185778
2013-09-20,60.50,60.509998,60.099998,60.240002,361700,57.034292
2013-09-19,60.349998,60.450001,59.810001,60.110001,131500,56.911209
2013-09-18,59.509998,60.34,59.169998,60.220001,239600,57.015356
2013-09-17,60.400002,60.50,59.360001,59.509998,208200,56.343137
2013-09-16,59.709999,60.57,59.540001,60.32,147100,57.110033
2013-09-13,59.360001,59.48,58.93,59.009998,151400,55.869745
2013-09-12,59.529999,59.939999,59.110001,59.150002,206400,56.002297
2013-09-11,59.290001,59.73,59.290001,59.509998,131100,56.343137
2013-09-10,59.470001,59.889999,59.060001,59.490002,191100,56.324204
2013-09-09,58.700001,59.48,58.299999,59.150002,148200,56.002297
2013-09-06,58.619999,58.91,57.759998,58.509998,84700,55.396352
2013-09-05,58.560001,58.889999,58.470001,58.490002,85500,55.37742
2013-09-04,58.34,58.900002,58.23,58.619999,134300,55.500499
2013-09-03,59.439999,59.779999,57.400002,58.369999,480700,55.263803
2013-08-30,59.34,60.080002,58.43,58.810001,310300,55.680391
2013-08-29,58.689999,59.439999,58.689999,59.209999,85400,56.059102
2013-08-28,58.560001,58.98,58.560001,58.810001,102700,55.680391
2013-08-27,59.34,59.77,58.68,58.75,114900,55.623582
2013-08-26,59.900002,60.419998,59.720001,60.07,81900,56.873337
2013-08-23,59.790001,59.880001,59.43,59.84,56100,56.655577
2013-08-22,59.110001,60.040001,59.110001,59.59,76900,56.418881
2013-08-21,59.040001,59.360001,58.77,58.900002,158200,55.765601
2013-08-20,59.34,59.59,59.209999,59.34,139500,56.182185
2013-08-19,59.240002,59.439999,59.119999,59.240002,120400,56.087508
2013-08-16,59.25,59.400002,59.029999,59.290001,100600,56.134847
2013-08-15,59.790001,59.82,59.169998,59.200001,107100,56.049636
2013-08-14,60.290001,60.580002,60.110001,60.310001,73200,57.100567
2013-08-13,60.389999,60.490002,59.82,60.349998,81800,57.138436
2013-08-12,59.880001,60.380001,59.880001,60.220001,114100,57.015356
2013-08-09,60.299999,60.59,59.91,60.119999,93800,56.920676
2013-08-08,59.84,60.610001,58.959999,60.34,151400,57.128969
2013-08-07,59.470001,59.529999,59.00,59.50,141900,56.33367
2013-08-06,60.119999,60.209999,59.27,59.470001,187300,56.305268
2013-08-05,60.43,60.59,59.810001,59.970001,103400,56.77866
2013-08-02,60.07,60.740002,59.75,60.48,150600,57.261519
2013-08-01,59.119999,60.290001,59.119999,59.91,530700,56.721852
2013-07-31,58.700001,58.75,58.25,58.389999,443300,55.282739
2013-07-30,58.810001,58.889999,58.23,58.389999,326800,55.282739
2013-07-29,57.689999,58.639999,57.689999,58.490002,350300,55.37742
2013-07-26,58.169998,58.419998,57.549999,57.939999,179500,54.61999
2013-07-25,58.639999,59.990002,58.34,58.34,262600,54.997071
2013-07-24,59.82,59.82,58.630001,58.700001,226500,55.336443
2013-07-23,59.880001,59.900002,59.32,59.57,82000,56.156591
2013-07-22,59.709999,60.110001,59.529999,59.639999,121700,56.222579
2013-07-19,59.849998,59.93,59.41,59.580002,138000,56.16602
2013-07-18,59.50,59.889999,59.139999,59.830002,147100,56.401695
2013-07-17,59.810001,59.810001,59.130001,59.380001,235100,55.977479
2013-07-16,59.799999,59.869999,59.27,59.43,156100,56.024613
2013-07-15,59.599998,59.790001,59.240002,59.759998,128100,56.335702
2013-07-12,59.360001,59.66,59.189999,59.650002,152900,56.232008
2013-07-11,58.779999,59.360001,58.669998,59.32,183200,55.920916
2013-07-10,57.599998,58.259998,57.529999,58.09,111400,54.761396
2013-07-09,57.240002,57.889999,57.02,57.799999,161200,54.488013
2013-07-08,56.790001,57.029999,56.599998,56.900002,135300,53.639586
2013-07-05,56.279999,56.630001,55.639999,56.619999,82900,53.375627
2013-07-03,55.66,55.91,55.360001,55.880001,56400,52.678032
2013-07-02,55.830002,56.380001,55.450001,55.799999,146800,52.602614
2013-07-01,55.490002,56.439999,55.360001,55.950001,150300,52.744021
2013-06-28,55.360001,55.619999,55.040001,55.209999,516700,52.046422
2013-06-27,55.209999,55.73,55.00,55.41,90500,52.234962
2013-06-26,55.200001,55.43,54.630001,54.959999,188200,51.810747
2013-06-25,55.279999,55.369999,54.349998,54.860001,181000,51.716478
2013-06-24,54.470001,55.110001,54.130001,54.830002,146400,51.688199
2013-06-21,55.470001,55.52,54.59,55.029999,391300,51.876735
2013-06-20,56.040001,56.349998,55.27,55.32,118400,52.150119
2013-06-19,57.189999,57.470001,56.57,56.599998,132100,53.356773
2013-06-18,57.200001,57.580002,57.200001,57.34,155000,54.054372
2013-06-17,57.32,57.43,56.939999,57.139999,164000,53.865831
2013-06-14,57.259998,57.34,56.810001,57.040001,68200,53.771563
2013-06-13,55.919998,57.349998,55.919998,57.290001,96200,54.007238
2013-06-12,57.02,57.290001,55.669998,56.049999,158100,52.838289
2013-06-11,56.560001,57.18,56.34,56.849998,99100,53.592448
2013-06-10,57.189999,57.759998,56.830002,57.189999,151700,53.912966
2013-06-07,56.470001,57.150002,56.450001,57.00,93900,53.733854
2013-06-06,55.830002,56.279999,55.68,56.279999,146700,53.055109
2013-06-05,56.419998,56.52,55.669998,55.779999,160300,52.58376
2013-06-04,56.84,57.310001,56.34,56.580002,208200,53.337922
2013-06-03,56.709999,57.040001,56.299999,56.849998,217100,53.592448
2013-05-31,57.00,57.299999,56.720001,56.720001,217400,53.469899
2013-05-30,56.299999,57.349998,56.299999,57.240002,267500,53.960103
2013-05-29,56.16,56.610001,56.029999,56.27,131700,53.045684
2013-05-28,56.73,57.139999,56.23,56.470001,166400,53.234225
2013-05-24,56.400002,56.509998,55.869999,56.220001,103200,52.99855
2013-05-23,56.200001,56.720001,55.900002,56.689999,198400,53.441616
2013-05-22,56.990002,57.52,56.34,56.610001,114700,53.366202
2013-05-21,56.950001,57.169998,56.630001,56.990002,104400,53.724429
2013-05-20,56.93,57.290001,56.93,57.060001,122400,53.790417
2013-05-17,56.810001,57.16,56.709999,57.07,171000,53.799843
2013-05-16,56.599998,57.029999,56.349998,56.57,153000,53.328493
2013-05-15,56.09,56.68,56.09,56.669998,159100,53.422762
2013-05-14,55.860001,56.330002,55.740002,56.299999,247400,53.073964
2013-05-13,56.549999,56.720001,55.959999,55.98,230900,52.7723
2013-05-10,56.080002,56.990002,56.080002,56.490002,393300,53.253079
2013-05-09,56.419998,56.529999,55.91,55.959999,141300,52.753446
2013-05-08,56.139999,56.459999,55.959999,56.459999,317700,53.224796
2013-05-07,56.049999,56.259998,55.759998,56.139999,228400,52.923132
2013-05-06,56.049999,56.310001,55.799999,56.07,204700,52.857144
2013-05-03,56.07,56.470001,55.849998,55.990002,209800,52.781729
2013-05-02,55.509998,56.040001,55.450001,55.599998,154300,52.414074
2013-05-01,56.009998,56.009998,55.310001,55.470001,242100,52.291525
2013-04-30,55.189999,56.119999,55.02,56.099998,656300,52.885423
2013-04-29,55.740002,55.759998,55.060001,55.349998,386200,52.178399
2013-04-26,56.169998,56.169998,54.959999,55.389999,239300,52.216108
2013-04-25,56.610001,56.84,56.130001,56.169998,239700,52.951412
2013-04-24,56.200001,56.639999,55.450001,56.50,220800,53.262504
2013-04-23,55.740002,56.189999,55.400002,56.16,90100,52.70631
2013-04-22,55.279999,55.73,54.75,55.459999,81300,52.049357
2013-04-19,54.709999,55.259998,54.400002,55.080002,205400,51.692729
2013-04-18,55.099998,55.169998,54.450001,54.57,96900,51.21409
2013-04-17,55.52,55.52,54.470001,55.009998,138200,51.62703
2013-04-16,55.630001,55.98,55.419998,55.860001,187000,52.42476
2013-04-15,56.619999,56.68,55.279999,55.389999,267400,51.983662
2013-04-12,57.169998,57.43,56.77,56.900002,100400,53.400803
2013-04-11,57.169998,57.689999,57.130001,57.48,113100,53.945133
2013-04-10,56.59,57.25,56.580002,57.25,207800,53.729278
2013-04-09,56.529999,56.66,56.09,56.439999,145700,52.969089
2013-04-08,56.25,56.43,55.889999,56.389999,141500,52.922165
2013-04-05,56.279999,56.299999,55.75,56.09,114000,52.640615
2013-04-04,56.700001,56.810001,56.200001,56.669998,151100,53.184945
2013-04-03,57.119999,57.150002,56.400002,56.639999,395200,53.156791
2013-04-02,57.27,57.27,56.75,57.23,174100,53.710507
2013-04-01,57.419998,57.419998,56.720001,56.970001,113500,53.466498
2013-03-28,56.830002,57.470001,56.720001,57.349998,240600,53.823127
2013-03-27,56.349998,56.900002,56.189999,56.84,85400,53.344492
2013-03-26,56.700001,56.799999,56.27,56.650002,248000,53.166178
2013-03-25,56.389999,56.75,55.630001,56.00,167800,52.556149
2013-03-22,56.27,56.400002,55.900002,56.240002,180700,52.781392
2013-03-21,56.360001,56.610001,56.049999,56.259998,227600,52.800159
2013-03-20,56.00,56.880001,55.860001,56.650002,230800,53.166178
2013-03-19,55.77,55.93,55.16,55.810001,165800,52.377835
2013-03-18,55.34,55.880001,55.27,55.560001,106800,52.14321
2013-03-15,55.389999,55.740002,55.240002,55.700001,378800,52.274599
2013-03-14,55.560001,55.700001,55.00,55.48,195800,52.068128
2013-03-13,55.369999,55.610001,54.950001,55.330002,209900,51.927354
2013-03-12,55.459999,55.619999,55.09,55.360001,244900,51.955508
2013-03-11,55.169998,55.369999,55.00,55.349998,239000,51.946121
2013-03-08,54.790001,55.25,54.610001,55.25,138000,51.852272
2013-03-07,54.470001,54.709999,54.299999,54.529999,168800,51.176549
2013-03-06,53.990002,54.509998,53.82,54.380001,173100,51.035776
2013-03-05,53.400002,53.939999,53.400002,53.799999,121200,50.491443
2013-03-04,53.279999,53.560001,52.970001,53.400002,165700,50.116044
2013-03-01,53.66,53.799999,53.080002,53.470001,355800,50.181739
2013-02-28,53.32,53.990002,53.32,53.939999,406300,50.622833
2013-02-27,52.50,53.59,52.50,53.400002,153500,50.116044
2013-02-26,52.259998,52.57,52.169998,52.459999,143500,49.233849
2013-02-25,52.939999,53.00,52.09,52.099998,158700,48.895988
2013-02-22,52.48,52.849998,52.330002,52.82,192800,49.571711
2013-02-21,52.32,52.459999,51.950001,52.23,236700,49.017994
2013-02-20,53.700001,53.779999,52.200001,52.27,326200,49.055535
2013-02-19,53.360001,53.849998,53.169998,53.75,228700,50.444518
2013-02-15,53.099998,53.310001,52.959999,53.110001,115200,49.843877
2013-02-14,53.02,53.279999,52.779999,53.07,205000,49.806336
2013-02-13,52.91,53.169998,52.540001,53.169998,208000,49.900185
2013-02-12,52.560001,52.720001,52.34,52.709999,156800,49.468475
2013-02-11,52.470001,52.580002,51.880001,52.43,193700,49.205695
2013-02-08,53.049999,53.43,52.380001,52.509998,404000,49.280774
2013-02-07,52.990002,52.990002,52.25,52.869999,250600,49.618635
2013-02-06,52.330002,53.130001,52.139999,52.91,319900,49.656176
2013-02-05,52.360001,52.619999,52.220001,52.549999,177800,49.318315
2013-02-04,51.91,52.290001,51.799999,52.209999,225100,48.999224
2013-02-01,52.009998,52.25,51.419998,52.23,216800,49.017994
2013-01-31,51.59,51.93,51.389999,51.529999,547800,48.361041
2013-01-30,51.889999,52.150002,51.669998,51.860001,288400,48.670749
2013-01-29,51.23,51.919998,50.950001,51.919998,230900,48.727057
2013-01-28,51.950001,51.950001,50.790001,51.040001,290900,47.901177
2013-01-25,52.389999,52.389999,51.93,52.029999,163000,48.595669
2013-01-24,51.860001,52.18,51.790001,52.099998,282500,48.661048
2013-01-23,52.139999,52.369999,51.73,51.810001,159500,48.390193
2013-01-22,52.220001,52.259998,51.759998,52.02,238500,48.586331
2013-01-18,52.110001,52.330002,51.900002,52.330002,137400,48.87587
2013-01-17,51.84,52.23,51.740002,52.040001,181100,48.605011
2013-01-16,51.549999,51.639999,51.360001,51.57,128500,48.166033
2013-01-15,50.75,51.580002,50.75,51.549999,167600,48.147353
2013-01-14,50.880001,51.389999,50.82,51.23,168600,47.848475
2013-01-11,50.59,51.139999,50.59,51.040001,263400,47.671018
2013-01-10,51.450001,51.450001,50.82,50.880001,158000,47.521579
2013-01-09,51.84,51.869999,50.939999,51.18,259700,47.801776
2013-01-08,51.110001,51.77,50.18,51.720001,545300,48.306134
2013-01-07,49.369999,49.43,49.099998,49.200001,118300,45.95247
2013-01-04,48.950001,49.630001,48.939999,49.619999,284500,46.344746
2013-01-03,48.759998,49.330002,48.639999,48.950001,181600,45.718972
2013-01-02,48.950001,48.990002,48.139999,48.759998,261500,45.541511
2012-12-31,47.189999,48.040001,47.040001,47.720001,575700,44.57016
2012-12-28,47.439999,47.880001,47.32,47.34,138000,44.215242
2012-12-27,47.419998,47.950001,47.189999,47.77,182400,44.616859
2012-12-26,47.990002,48.049999,47.41,47.540001,138300,44.402041
2012-12-24,47.650002,48.099998,47.27,47.990002,95700,44.822339
2012-12-21,47.689999,48.349998,47.330002,47.759998,919100,44.607517
2012-12-20,48.049999,48.349998,48.00,48.189999,322400,45.009135
2012-12-19,47.560001,48.549999,47.560001,48.07,247000,44.897057
2012-12-18,47.400002,47.599998,47.09,47.560001,377100,44.420722
2012-12-17,46.990002,47.459999,46.98,47.380001,179600,44.252603
2012-12-14,47.150002,47.439999,46.849998,46.919998,229500,43.822963
2012-12-13,47.560001,47.810001,46.84,47.200001,280600,44.084484
2012-12-12,47.950001,48.09,47.549999,47.57,120800,44.43006
2012-12-11,48.009998,48.099998,47.59,47.740002,286900,44.588841
2012-12-10,47.619999,47.900002,47.380001,47.779999,222000,44.626198
2012-12-07,47.77,47.900002,47.580002,47.700001,240000,44.55148
2012-12-06,47.200001,47.68,46.91,47.68,168200,44.5328
2012-12-05,47.18,47.360001,46.889999,47.25,219500,44.131182
2012-12-04,46.889999,47.32,46.610001,47.080002,271800,43.972405
2012-12-03,48.02,48.07,46.77,46.950001,251600,43.850985
2012-11-30,47.799999,48.029999,47.380001,47.669998,306900,44.523458
2012-11-29,47.900002,48.09,47.419998,47.77,126300,44.616859
2012-11-28,46.740002,47.779999,46.709999,47.580002,184800,44.439402
2012-11-27,47.68,48.119999,47.189999,47.310001,394000,44.187223
2012-11-26,47.41,47.93,47.41,47.790001,352700,44.63554
2012-11-23,47.16,47.630001,47.16,47.619999,111400,44.476759
2012-11-21,47.049999,47.540001,46.759998,46.950001,200800,43.850985
2012-11-20,46.790001,46.970001,46.50,46.970001,270500,43.869665
2012-11-19,46.59,46.990002,46.400002,46.939999,329900,43.841643
2012-11-16,45.799999,46.220001,45.189999,46.189999,420800,43.141148
2012-11-15,46.00,46.290001,45.529999,45.799999,716300,42.776892
2012-11-14,47.119999,47.380001,46.029999,46.040001,285200,43.001051
2012-11-13,47.610001,47.849998,46.990002,47.150002,788600,44.037785
2012-11-12,48.00,48.349998,47.860001,47.889999,201300,44.728938
2012-11-09,48.09,48.48,48.00,48.02,276000,44.850358
2012-11-08,48.810001,49.02,48.27,48.27,182400,45.083856
2012-11-07,49.740002,49.740002,48.860001,48.919998,286300,45.69095
2012-11-06,49.549999,50.75,49.529999,50.16,403900,46.849103
2012-11-05,49.700001,50.490002,49.16,49.669998,353900,46.391445
2012-11-02,52.400002,53.02,49.169998,49.490002,615200,46.017849
2012-11-01,51.389999,53.360001,51.25,53.130001,428300,49.402471
2012-10-31,50.799999,51.619999,49.970001,51.279999,199500,47.682263
2012-10-26,51.490002,51.790001,51.290001,51.650002,98400,48.026307
2012-10-25,51.689999,51.689999,51.049999,51.299999,224900,47.70086
2012-10-24,51.939999,51.939999,51.259998,51.419998,132900,47.81244
2012-10-23,52.150002,52.150002,51.200001,51.709999,92000,48.082095
2012-10-22,52.299999,52.650002,52.189999,52.580002,143100,48.891059
2012-10-19,52.66,52.779999,51.950001,52.34,122600,48.667896
2012-10-18,52.860001,52.939999,52.669998,52.740002,92200,49.039834
2012-10-17,52.220001,53.060001,52.049999,53.00,153500,49.281591
2012-10-16,51.48,52.16,51.470001,52.110001,135000,48.454033
2012-10-15,51.209999,51.52,50.93,51.450001,135300,47.840338
2012-10-12,51.27,51.580002,51.18,51.23,147100,47.635771
2012-10-11,51.490002,51.700001,51.189999,51.27,83700,47.672966
2012-10-10,51.700001,51.720001,51.110001,51.189999,173800,47.598577
2012-10-09,52.310001,52.380001,51.619999,51.68,154000,48.054201
2012-10-08,52.450001,52.720001,52.209999,52.41,164300,48.732984
2012-10-05,52.599998,53.00,52.48,52.57,141800,48.881759
2012-10-04,52.220001,52.400002,51.950001,52.310001,145400,48.640002
2012-10-03,51.950001,52.369999,51.77,52.029999,169800,48.379644
2012-10-02,51.91,51.990002,51.439999,51.869999,188800,48.230869
2012-10-01,51.709999,51.919998,51.040001,51.740002,452200,48.109992
2012-09-28,51.32,51.82,51.09,51.709999,416700,48.082095
2012-09-27,51.860001,51.93,51.279999,51.619999,226300,47.998409
2012-09-26,52.09,52.09,51.360001,51.810001,143200,48.175081
2012-09-25,52.73,53.029999,51.900002,51.990002,230200,48.342453
2012-09-24,52.169998,52.759998,52.169998,52.650002,251900,48.956148
2012-09-21,53.110001,53.189999,52.57,52.669998,418800,48.974742
2012-09-20,52.240002,52.759998,52.099998,52.68,213700,48.984042
2012-09-19,52.25,52.549999,51.950001,52.41,137300,48.732984
2012-09-18,52.240002,52.41,51.849998,52.099998,251000,48.444732
2012-09-17,52.43,52.560001,52.240002,52.400002,241800,48.723688
2012-09-14,52.18,52.59,52.18,52.459999,191900,48.779476
2012-09-13,51.349998,52.380001,51.349998,52.139999,245500,48.481927
2012-09-12,51.049999,51.419998,50.990002,51.279999,114100,47.682263
2012-09-11,51.110001,51.259998,50.709999,51.189999,163000,47.598577
2012-09-10,50.700001,51.43,50.330002,51.110001,153900,47.524191
2012-09-07,50.880001,51.490002,50.619999,51.490002,316600,47.877532
2012-09-06,50.919998,51.799999,50.720001,50.799999,436800,47.235939
2012-09-05,51.099998,51.23,50.330002,50.610001,459600,47.059271
2012-09-04,50.720001,51.040001,50.07,51.00,256900,47.421908
2012-08-31,50.869999,51.02,50.349998,50.650002,184300,47.096465
2012-08-30,50.639999,50.759998,50.400002,50.470001,136600,46.929094
2012-08-29,50.939999,51.139999,50.790001,50.919998,148500,47.347519
2012-08-28,50.43,51.040001,50.200001,50.98,259700,47.403311
2012-08-27,51.00,51.00,50.400002,50.509998,171500,46.966285
2012-08-24,50.349998,50.91,50.349998,50.82,130700,47.254537
2012-08-23,50.860001,50.860001,50.25,50.52,123200,46.975585
2012-08-22,50.389999,50.869999,50.00,50.84,173300,47.273134
2012-08-21,50.66,50.720001,50.130001,50.369999,187800,46.836107
2012-08-20,50.68,50.759998,50.139999,50.57,125000,47.022076
2012-08-17,50.57,50.869999,50.25,50.619999,115900,47.068568
2012-08-16,50.360001,50.790001,50.029999,50.66,169100,47.105762
2012-08-15,50.009998,50.369999,49.869999,50.360001,118100,46.82681
2012-08-14,50.18,50.23,49.869999,49.970001,203700,46.464173
2012-08-13,49.75,49.98,49.299999,49.98,127100,46.47347
2012-08-10,49.830002,50.02,49.650002,49.889999,114400,46.389784
2012-08-09,49.919998,50.02,49.509998,49.830002,176300,46.333996
2012-08-08,49.970001,50.259998,49.889999,49.919998,129200,46.417678
2012-08-07,50.00,50.400002,49.82,50.049999,268600,46.538558
2012-08-06,50.060001,50.459999,49.869999,49.98,144900,46.268905
2012-08-03,49.299999,50.150002,49.299999,50.060001,218100,46.342967
2012-08-02,48.669998,48.990002,48.080002,48.57,294900,44.9636
2012-08-01,50.119999,50.16,49.00,49.220001,219700,45.565338
2012-07-31,50.34,50.549999,49.860001,50.009998,231700,46.296676
2012-07-30,50.720001,51.220001,50.349998,50.48,189100,46.731779
2012-07-27,50.119999,51.959999,49.470001,50.650002,458600,46.889158
2012-07-26,50.009998,50.139999,49.439999,49.810001,316700,46.111529
2012-07-25,48.830002,49.369999,48.560001,49.349998,303000,45.685683
2012-07-24,49.369999,49.369999,48.349998,48.75,337100,45.130235
2012-07-23,49.470001,49.939999,48.919998,49.779999,141000,46.083755
2012-07-20,50.389999,50.549999,50.07,50.110001,90700,46.389253
2012-07-19,50.360001,50.810001,50.09,50.709999,166600,46.944701
2012-07-18,49.48,50.529999,49.419998,50.310001,187600,46.574404
2012-07-17,49.650002,49.880001,49.150002,49.82,244600,46.120785
2012-07-16,49.810001,49.919998,49.349998,49.639999,150200,45.95415
2012-07-13,49.25,49.889999,49.009998,49.84,237300,46.139301
2012-07-12,49.09,49.220001,48.669998,49.049999,259200,45.407959
2012-07-11,49.380001,49.450001,48.900002,49.23,426400,45.574594
2012-07-10,49.43,49.57,48.830002,49.470001,461200,45.796775
2012-07-09,49.490002,50.209999,47.560001,49.720001,716500,46.028212
2012-07-06,52.150002,52.400002,51.07,51.459999,237600,47.639012
2012-07-05,52.459999,52.740002,52.349998,52.50,267300,48.601791
2012-07-03,51.700001,52.619999,51.700001,52.529999,82200,48.629563
2012-07-02,51.07,51.939999,50.919998,51.779999,196500,47.935251
2012-06-29,51.34,51.700001,51.02,51.049999,355100,47.259456
2012-06-28,50.529999,50.709999,50.060001,50.529999,227900,46.778066
2012-06-27,50.790001,51.240002,50.650002,50.73,207600,46.963216
2012-06-26,50.709999,50.970001,50.32,50.580002,107000,46.824356
2012-06-25,51.189999,51.200001,50.50,50.709999,127100,46.944701
2012-06-22,51.400002,51.799999,51.16,51.720001,406900,47.879709
2012-06-21,52.200001,52.48,51.00,51.130001,144200,47.333517
2012-06-20,52.18,52.580002,51.98,52.240002,138800,48.361098
2012-06-19,52.639999,53.259998,52.419998,52.43,267100,48.536989
2012-06-18,52.18,52.849998,51.889999,52.619999,131300,48.71288
2012-06-15,52.560001,52.740002,52.240002,52.27,235700,48.38887
2012-06-14,52.139999,52.57,51.91,52.380001,174300,48.490703
2012-06-13,52.189999,52.66,51.849998,51.970001,185400,48.111146
2012-06-12,51.970001,52.540001,51.869999,52.369999,166900,48.481443
2012-06-11,52.75,52.93,51.709999,51.77,94000,47.925995
2012-06-08,51.950001,52.529999,51.48,52.400002,127300,48.509218
2012-06-07,52.00,52.450001,51.880001,51.939999,255900,48.083371
2012-06-06,50.950001,51.650002,50.759998,51.580002,226900,47.750105
2012-06-05,49.959999,50.490002,49.860001,50.400002,150400,46.657721
2012-06-04,50.25,50.360001,49.689999,50.220001,179600,46.491086
2012-06-01,49.560001,50.439999,49.360001,50.259998,376100,46.528113
2012-05-31,50.029999,51.09,49.939999,50.669998,2431400,46.90767
2012-05-30,50.459999,50.459999,49.84,49.869999,280000,46.167072
2012-05-29,51.029999,51.619999,50.630001,50.709999,272900,46.944701
2012-05-25,51.099998,51.27,50.540001,50.610001,146500,46.852127
2012-05-24,51.18,51.41,50.459999,51.060001,209700,47.268715
2012-05-23,50.119999,51.220001,49.900002,51.049999,270000,47.259456
2012-05-22,50.669998,50.959999,50.330002,50.59,246000,46.833612
2012-05-21,49.82,50.700001,49.740002,50.560001,240700,46.805841
2012-05-18,50.349998,50.560001,49.630001,49.700001,171400,46.009697
2012-05-17,51.389999,51.540001,50.139999,50.139999,257200,46.417025
2012-05-16,52.00,52.150002,51.240002,51.279999,245400,47.472377
2012-05-15,52.490002,52.610001,51.610001,51.740002,243000,47.898224
2012-05-14,52.830002,52.849998,52.310001,52.330002,132000,48.444416
2012-05-11,53.349998,53.880001,53.279999,53.389999,122000,49.425707
2012-05-10,54.110001,54.110001,53.34,53.57,131400,49.592342
2012-05-09,53.490002,53.880001,52.950001,53.720001,199000,49.731206
2012-05-08,53.23,53.869999,52.689999,53.790001,342600,49.796008
2012-05-07,53.509998,53.810001,53.450001,53.59,157000,49.610857
2012-05-04,54.619999,54.709999,53.610001,53.720001,265500,49.731206
2012-05-03,54.630001,55.389999,54.48,54.830002,326100,50.758787
2012-05-02,54.349998,54.849998,54.080002,54.529999,267000,50.48106
2012-05-01,54.400002,55.259998,54.200001,54.669998,216400,50.610664
2012-04-30,54.759998,54.990002,54.299999,54.509998,269000,50.462544
2012-04-27,54.43,55.110001,54.389999,54.790001,354100,50.721756
2012-04-26,54.330002,54.91,53.549999,54.50,373600,50.453288
2012-04-25,54.360001,55.110001,54.040001,55.02,278400,50.934678
2012-04-24,54.110001,54.259998,53.799999,54.029999,304000,50.018185
2012-04-23,54.389999,54.389999,53.82,54.259998,152300,50.027443
2012-04-20,54.669998,55.00,54.599998,54.889999,166600,50.608301
2012-04-19,54.549999,55.049999,54.18,54.540001,247400,50.285604
2012-04-18,54.330002,54.549999,54.150002,54.48,165600,50.230283
2012-04-17,54.650002,54.759998,54.360001,54.50,306900,50.248723
2012-04-16,54.130001,54.470001,53.73,54.27,134200,50.036665
2012-04-13,54.27,54.419998,53.950001,54.080002,164900,49.861487
2012-04-12,53.91,54.639999,53.91,54.50,154100,50.248723
